# Pulseq sequence file
# Created by MATLAB mr toolbox

[VERSION]
major 1
minor 4
revision 0

[DEFINITIONS]
ADCGradDelay 0.0005 
AdcRasterTime 1e-07 
Amplitude 6 
Averages 1 
Bandwidth 100000 
BlockDurationRaster 1e-05 
Contrasts 2 
FOV 0.22 0.22 0.005 
FlipAngle 90 
GradientRasterTime 1e-05 
MaxSlewRate 50 
Name Zhao 2020 MRM v2 
PhaseEncodingSteps1 64 
PhaseEncodingSteps2 64 
RFDuration 0.0082 
RadiofrequencyRasterTime 1e-06 
RampTime 0.00014 
ReadoutOSFactor 2 
RealDwellTime 5e-06 
Repetitions 2 
TE 0.01 
TR 0.5 
TotalDuration 4096 
TotalTime 0.00052 
VectorSize 512 

# Format of blocks:
# NUM DUR RF  GX  GY  GZ  ADC  EXT
[BLOCKS]
    1 835   1   0   0   1  0  0
    2 584   0   3   4   2  0  0
    3 48581   0   5   0   0  1  0
    4   0   0   0   0   0  0  1
    5   0   0   0   0   0  0  2
    6 835   1   0   0   1  0  0
    7 584   0   6   4   2  0  0
    8 48581   0   5   0   0  1  0
    9   0   0   0   0   0  0  1
   10   0   0   0   0   0  0  2
   11 835   1   0   0   1  0  0
   12 584   0   7   4   2  0  0
   13 48581   0   5   0   0  1  0
   14   0   0   0   0   0  0  1
   15   0   0   0   0   0  0  2
   16 835   1   0   0   1  0  0
   17 584   0   8   4   2  0  0
   18 48581   0   5   0   0  1  0
   19   0   0   0   0   0  0  1
   20   0   0   0   0   0  0  2
   21 835   1   0   0   1  0  0
   22 584   0   9   4   2  0  0
   23 48581   0   5   0   0  1  0
   24   0   0   0   0   0  0  1
   25   0   0   0   0   0  0  2
   26 835   1   0   0   1  0  0
   27 584   0  10   4   2  0  0
   28 48581   0   5   0   0  1  0
   29   0   0   0   0   0  0  1
   30   0   0   0   0   0  0  2
   31 835   1   0   0   1  0  0
   32 584   0  11   4   2  0  0
   33 48581   0   5   0   0  1  0
   34   0   0   0   0   0  0  1
   35   0   0   0   0   0  0  2
   36 835   1   0   0   1  0  0
   37 584   0  12   4   2  0  0
   38 48581   0   5   0   0  1  0
   39   0   0   0   0   0  0  1
   40   0   0   0   0   0  0  2
   41 835   1   0   0   1  0  0
   42 584   0  13   4   2  0  0
   43 48581   0   5   0   0  1  0
   44   0   0   0   0   0  0  1
   45   0   0   0   0   0  0  2
   46 835   1   0   0   1  0  0
   47 584   0  14   4   2  0  0
   48 48581   0   5   0   0  1  0
   49   0   0   0   0   0  0  1
   50   0   0   0   0   0  0  2
   51 835   1   0   0   1  0  0
   52 584   0  15   4   2  0  0
   53 48581   0   5   0   0  1  0
   54   0   0   0   0   0  0  1
   55   0   0   0   0   0  0  2
   56 835   1   0   0   1  0  0
   57 584   0  16   4   2  0  0
   58 48581   0   5   0   0  1  0
   59   0   0   0   0   0  0  1
   60   0   0   0   0   0  0  2
   61 835   1   0   0   1  0  0
   62 584   0  17   4   2  0  0
   63 48581   0   5   0   0  1  0
   64   0   0   0   0   0  0  1
   65   0   0   0   0   0  0  2
   66 835   1   0   0   1  0  0
   67 584   0  18   4   2  0  0
   68 48581   0   5   0   0  1  0
   69   0   0   0   0   0  0  1
   70   0   0   0   0   0  0  2
   71 835   1   0   0   1  0  0
   72 584   0  19   4   2  0  0
   73 48581   0   5   0   0  1  0
   74   0   0   0   0   0  0  1
   75   0   0   0   0   0  0  2
   76 835   1   0   0   1  0  0
   77 584   0  20   4   2  0  0
   78 48581   0   5   0   0  1  0
   79   0   0   0   0   0  0  1
   80   0   0   0   0   0  0  2
   81 835   1   0   0   1  0  0
   82 584   0  21   4   2  0  0
   83 48581   0   5   0   0  1  0
   84   0   0   0   0   0  0  1
   85   0   0   0   0   0  0  2
   86 835   1   0   0   1  0  0
   87 584   0  22   4   2  0  0
   88 48581   0   5   0   0  1  0
   89   0   0   0   0   0  0  1
   90   0   0   0   0   0  0  2
   91 835   1   0   0   1  0  0
   92 584   0  23   4   2  0  0
   93 48581   0   5   0   0  1  0
   94   0   0   0   0   0  0  1
   95   0   0   0   0   0  0  2
   96 835   1   0   0   1  0  0
   97 584   0  24   4   2  0  0
   98 48581   0   5   0   0  1  0
   99   0   0   0   0   0  0  1
  100   0   0   0   0   0  0  2
  101 835   1   0   0   1  0  0
  102 584   0  25   4   2  0  0
  103 48581   0   5   0   0  1  0
  104   0   0   0   0   0  0  1
  105   0   0   0   0   0  0  2
  106 835   1   0   0   1  0  0
  107 584   0  26   4   2  0  0
  108 48581   0   5   0   0  1  0
  109   0   0   0   0   0  0  1
  110   0   0   0   0   0  0  2
  111 835   1   0   0   1  0  0
  112 584   0  27   4   2  0  0
  113 48581   0   5   0   0  1  0
  114   0   0   0   0   0  0  1
  115   0   0   0   0   0  0  2
  116 835   1   0   0   1  0  0
  117 584   0  28   4   2  0  0
  118 48581   0   5   0   0  1  0
  119   0   0   0   0   0  0  1
  120   0   0   0   0   0  0  2
  121 835   1   0   0   1  0  0
  122 584   0  29   4   2  0  0
  123 48581   0   5   0   0  1  0
  124   0   0   0   0   0  0  1
  125   0   0   0   0   0  0  2
  126 835   1   0   0   1  0  0
  127 584   0  30   4   2  0  0
  128 48581   0   5   0   0  1  0
  129   0   0   0   0   0  0  1
  130   0   0   0   0   0  0  2
  131 835   1   0   0   1  0  0
  132 584   0  31   4   2  0  0
  133 48581   0   5   0   0  1  0
  134   0   0   0   0   0  0  1
  135   0   0   0   0   0  0  2
  136 835   1   0   0   1  0  0
  137 584   0  32   4   2  0  0
  138 48581   0   5   0   0  1  0
  139   0   0   0   0   0  0  1
  140   0   0   0   0   0  0  2
  141 835   1   0   0   1  0  0
  142 584   0  33   4   2  0  0
  143 48581   0   5   0   0  1  0
  144   0   0   0   0   0  0  1
  145   0   0   0   0   0  0  2
  146 835   1   0   0   1  0  0
  147 584   0  34   4   2  0  0
  148 48581   0   5   0   0  1  0
  149   0   0   0   0   0  0  1
  150   0   0   0   0   0  0  2
  151 835   1   0   0   1  0  0
  152 584   0  35   4   2  0  0
  153 48581   0   5   0   0  1  0
  154   0   0   0   0   0  0  1
  155   0   0   0   0   0  0  2
  156 835   1   0   0   1  0  0
  157 584   0  36   4   2  0  0
  158 48581   0   5   0   0  1  0
  159   0   0   0   0   0  0  1
  160   0   0   0   0   0  0  2
  161 835   1   0   0   1  0  0
  162 584   0  37   4   2  0  0
  163 48581   0   5   0   0  1  0
  164   0   0   0   0   0  0  1
  165   0   0   0   0   0  0  2
  166 835   1   0   0   1  0  0
  167 584   0  38   4   2  0  0
  168 48581   0   5   0   0  1  0
  169   0   0   0   0   0  0  1
  170   0   0   0   0   0  0  2
  171 835   1   0   0   1  0  0
  172 584   0  39   4   2  0  0
  173 48581   0   5   0   0  1  0
  174   0   0   0   0   0  0  1
  175   0   0   0   0   0  0  2
  176 835   1   0   0   1  0  0
  177 584   0  40   4   2  0  0
  178 48581   0   5   0   0  1  0
  179   0   0   0   0   0  0  1
  180   0   0   0   0   0  0  2
  181 835   1   0   0   1  0  0
  182 584   0  41   4   2  0  0
  183 48581   0   5   0   0  1  0
  184   0   0   0   0   0  0  1
  185   0   0   0   0   0  0  2
  186 835   1   0   0   1  0  0
  187 584   0  42   4   2  0  0
  188 48581   0   5   0   0  1  0
  189   0   0   0   0   0  0  1
  190   0   0   0   0   0  0  2
  191 835   1   0   0   1  0  0
  192 584   0  43   4   2  0  0
  193 48581   0   5   0   0  1  0
  194   0   0   0   0   0  0  1
  195   0   0   0   0   0  0  2
  196 835   1   0   0   1  0  0
  197 584   0  44   4   2  0  0
  198 48581   0   5   0   0  1  0
  199   0   0   0   0   0  0  1
  200   0   0   0   0   0  0  2
  201 835   1   0   0   1  0  0
  202 584   0  45   4   2  0  0
  203 48581   0   5   0   0  1  0
  204   0   0   0   0   0  0  1
  205   0   0   0   0   0  0  2
  206 835   1   0   0   1  0  0
  207 584   0  46   4   2  0  0
  208 48581   0   5   0   0  1  0
  209   0   0   0   0   0  0  1
  210   0   0   0   0   0  0  2
  211 835   1   0   0   1  0  0
  212 584   0  47   4   2  0  0
  213 48581   0   5   0   0  1  0
  214   0   0   0   0   0  0  1
  215   0   0   0   0   0  0  2
  216 835   1   0   0   1  0  0
  217 584   0  48   4   2  0  0
  218 48581   0   5   0   0  1  0
  219   0   0   0   0   0  0  1
  220   0   0   0   0   0  0  2
  221 835   1   0   0   1  0  0
  222 584   0  49   4   2  0  0
  223 48581   0   5   0   0  1  0
  224   0   0   0   0   0  0  1
  225   0   0   0   0   0  0  2
  226 835   1   0   0   1  0  0
  227 584   0  50   4   2  0  0
  228 48581   0   5   0   0  1  0
  229   0   0   0   0   0  0  1
  230   0   0   0   0   0  0  2
  231 835   1   0   0   1  0  0
  232 584   0  51   4   2  0  0
  233 48581   0   5   0   0  1  0
  234   0   0   0   0   0  0  1
  235   0   0   0   0   0  0  2
  236 835   1   0   0   1  0  0
  237 584   0  52   4   2  0  0
  238 48581   0   5   0   0  1  0
  239   0   0   0   0   0  0  1
  240   0   0   0   0   0  0  2
  241 835   1   0   0   1  0  0
  242 584   0  53   4   2  0  0
  243 48581   0   5   0   0  1  0
  244   0   0   0   0   0  0  1
  245   0   0   0   0   0  0  2
  246 835   1   0   0   1  0  0
  247 584   0  54   4   2  0  0
  248 48581   0   5   0   0  1  0
  249   0   0   0   0   0  0  1
  250   0   0   0   0   0  0  2
  251 835   1   0   0   1  0  0
  252 584   0  55   4   2  0  0
  253 48581   0   5   0   0  1  0
  254   0   0   0   0   0  0  1
  255   0   0   0   0   0  0  2
  256 835   1   0   0   1  0  0
  257 584   0  56   4   2  0  0
  258 48581   0   5   0   0  1  0
  259   0   0   0   0   0  0  1
  260   0   0   0   0   0  0  2
  261 835   1   0   0   1  0  0
  262 584   0  57   4   2  0  0
  263 48581   0   5   0   0  1  0
  264   0   0   0   0   0  0  1
  265   0   0   0   0   0  0  2
  266 835   1   0   0   1  0  0
  267 584   0  58   4   2  0  0
  268 48581   0   5   0   0  1  0
  269   0   0   0   0   0  0  1
  270   0   0   0   0   0  0  2
  271 835   1   0   0   1  0  0
  272 584   0  59   4   2  0  0
  273 48581   0   5   0   0  1  0
  274   0   0   0   0   0  0  1
  275   0   0   0   0   0  0  2
  276 835   1   0   0   1  0  0
  277 584   0  60   4   2  0  0
  278 48581   0   5   0   0  1  0
  279   0   0   0   0   0  0  1
  280   0   0   0   0   0  0  2
  281 835   1   0   0   1  0  0
  282 584   0  61   4   2  0  0
  283 48581   0   5   0   0  1  0
  284   0   0   0   0   0  0  1
  285   0   0   0   0   0  0  2
  286 835   1   0   0   1  0  0
  287 584   0  62   4   2  0  0
  288 48581   0   5   0   0  1  0
[RF]
1      120.421 1 2 0 100 0 0

# Format of arbitrary gradients:
#   time_shape_id of 0 means default timing (stepping with grad_raster starting at 1/2 of grad_raster)
# id amplitude amp_shape_id time_shape_id delay
# ..      Hz/m       ..         ..          us
[GRADIENTS]
5       255456 3 4 510
70      -255456 3 4 510

# Format of trapezoid gradients:
# id amplitude rise flat fall delay
# ..      Hz/m   us   us   us    us
[TRAP]
 1        97561  50 8200  50  50
 2      -914634 440    0 440   0
 3      -184120  90  700  90   0
 4       184120  90  700  90   0
 6      -178366  90  700  90   0
 7      -172612  90  700  90   0
 8      -164773  80  720  80   0
 9      -159091  80  720  80   0
10      -153409  80  720  80   0
11      -145903  70  740  70   0
12      -140292  70  740  70   0
13      -134680  70  740  70   0
14      -127494  60  760  60   0
15      -121951  60  760  60   0
16      -116408  60  760  60   0
17      -110865  60  760  60   0
18      -104053  50  780  50   0
19     -98576.1  50  780  50   0
20     -93099.7  50  780  50   0
21     -87623.2  50  780  50   0
22     -81168.8  40  800  40   0
23     -75757.6  40  800  40   0
24     -70346.3  40  800  40   0
25     -64935.1  40  800  40   0
26     -58823.5  30  820  30   0
27     -53475.9  30  820  30   0
28     -48128.3  30  820  30   0
29     -42283.3  20  840  20   0
30     -36997.9  20  840  20   0
31     -31712.5  20  840  20   0
32     -26427.1  20  840  20   0
33     -20898.6  10  860  10   0
34       -15674  10  860  10   0
35     -10449.3  10  860  10   0
36     -5224.66  10  860  10   0
37            0  10  860  10   0
38      5224.66  10  860  10   0
39      10449.3  10  860  10   0
40        15674  10  860  10   0
41      20898.6  10  860  10   0
42      26427.1  20  840  20   0
43      31712.5  20  840  20   0
44      36997.9  20  840  20   0
45      42283.3  20  840  20   0
46      48128.3  30  820  30   0
47      53475.9  30  820  30   0
48      58823.5  30  820  30   0
49      64935.1  40  800  40   0
50      70346.3  40  800  40   0
51      75757.6  40  800  40   0
52      81168.8  40  800  40   0
53      87623.2  50  780  50   0
54      93099.7  50  780  50   0
55      98576.1  50  780  50   0
56       104053  50  780  50   0
57       110865  60  760  60   0
58       116408  60  760  60   0
59       121951  60  760  60   0
60       127494  60  760  60   0
61       134680  70  740  70   0
62       140292  70  740  70   0
63       145903  70  740  70   0
64       153409  80  720  80   0
65       159091  80  720  80   0
66       164773  80  720  80   0
67       172612  90  700  90   0
68       178366  90  700  90   0
69           -0  10  860  10   0

# Format of ADC events:
# id num dwell delay freq phase
# ..  ..    ns    us   Hz   rad
[ADC]
1 1024 5000 10 0 0

# Format of extension lists:
# id type ref next_id
# next_id of 0 terminates the list
# Extension list is followed by extension specifications
[EXTENSIONS]
1 1 1 0
2 2 1 0
3 1 2 0
4 2 2 0
5 1 3 0
6 2 3 0
7 1 4 0

# Extension specification for setting labels:
# id set labelstring
extension LABELSET 1
1 0 AVG
2 0 LIN
3 0 PAR
4 0 REP

# Extension specification for setting labels:
# id set labelstring
extension LABELINC 2
1 1 LIN
2 1 PAR
3 1 REP

# Sequence Shapes
[SHAPES]

shape_id 1
num_samples 8200
4.47559905e-12
1.20870552e-10
5.59721472e-10
1.53624658e-09
3.26586958e-09
5.96421797e-09
9.84712145e-09
1.51306102e-08
2.20309134e-08
3.07644573e-08
4.15478638e-08
5.45979487e-08
7.01317201e-08
8.83663766e-08
1.09519306e-07
1.33808082e-07
1.61450467e-07
1.92664404e-07
2.2766802e-07
2.66679622e-07
3.09917695e-07
3.57600905e-07
4.09948088e-07
4.67178258e-07
5.295106e-07
5.97164468e-07
6.70359388e-07
7.49315049e-07
8.34251309e-07
9.25388188e-07
1.02294587e-06
1.12714469e-06
1.23820516e-06
1.35634793e-06
1.48179381e-06
1.61476378e-06
1.75547895e-06
1.90416058e-06
2.06103011e-06
2.22630908e-06
2.4002192e-06
2.58298234e-06
2.77482048e-06
2.97595575e-06
3.18661042e-06
3.4070069e-06
3.63736773e-06
3.87791559e-06
4.12887328e-06
4.39046373e-06
4.66291001e-06
4.9464353e-06
5.24126292e-06
5.5476163e-06
5.86571898e-06
6.19579466e-06
6.53806711e-06
6.89276024e-06
7.26009808e-06
7.64030474e-06
8.03360448e-06
8.44022164e-06
8.86038068e-06
9.29430616e-06
9.74222274e-06
1.02043552e-05
1.06809284e-05
1.11721672e-05
1.16782968e-05
1.21995424e-05
1.2736129e-05
1.32882822e-05
1.38562272e-05
1.44401897e-05
1.50403951e-05
1.56570693e-05
1.62904379e-05
1.69407267e-05
1.76081618e-05
1.82929691e-05
1.89953746e-05
1.97156046e-05
2.04538852e-05
2.12104426e-05
2.19855034e-05
2.27792937e-05
2.35920403e-05
2.44239695e-05
2.52753079e-05
2.61462823e-05
2.70371194e-05
2.79480459e-05
2.88792886e-05
2.98310744e-05
3.08036302e-05
3.1797183e-05
3.28119599e-05
3.38481878e-05
3.49060938e-05
3.59859052e-05
3.7087849e-05
3.82121525e-05
3.9359043e-05
4.05287477e-05
4.17214939e-05
4.29375089e-05
4.41770202e-05
4.54402552e-05
4.67274411e-05
4.80388055e-05
4.93745759e-05
5.07349797e-05
5.21202443e-05
5.35305974e-05
5.49662664e-05
5.64274788e-05
5.79144622e-05
5.94274441e-05
6.09666521e-05
6.25323137e-05
6.41246565e-05
6.5743908e-05
6.73902957e-05
6.90640473e-05
7.07653902e-05
7.2494552e-05
7.42517602e-05
7.60372423e-05
7.78512258e-05
7.96939382e-05
8.15656069e-05
8.34664593e-05
8.5396723e-05
8.73566253e-05
8.93463935e-05
9.1366255e-05
9.34164372e-05
9.54971672e-05
9.76086725e-05
9.97511801e-05
0.000101924917
0.000104130111
0.000106366989
0.000108635777
0.000110936704
0.000113269995
0.000115635878
0.00011803458
0.000120466327
0.000122931346
0.000125429865
0.000127962109
0.000130528305
0.00013312868
0.00013576346
0.000138432872
0.000141137142
0.000143876496
0.000146651161
0.000149461362
0.000152307326
0.000155189278
0.000158107445
0.000161062053
0.000164053326
0.000167081491
0.000170146774
0.000173249399
0.000176389593
0.00017956758
0.000182783586
0.000186037835
0.000189330554
0.000192661966
0.000196032297
0.000199441771
0.000202890613
0.000206379048
0.000209907299
0.000213475591
0.000217084149
0.000220733196
0.000224422956
0.000228153653
0.000231925511
0.000235738754
0.000239593604
0.000243490285
0.000247429021
0.000251410034
0.000255433547
0.000259499783
0.000263608966
0.000267761316
0.000271957058
0.000276196412
0.000280479601
0.000284806848
0.000289178373
0.000293594399
0.000298055147
0.000302560838
0.000307111694
0.000311707935
0.000316349783
0.000321037459
0.000325771182
0.000330551173
0.000335377653
0.000340250841
0.000345170958
0.000350138222
0.000355152855
0.000360215074
0.0003653251
0.000370483151
0.000375689446
0.000380944203
0.000386247642
0.000391599981
0.000397001436
0.000402452227
0.000407952572
0.000413502686
0.000419102789
0.000424753097
0.000430453826
0.000436205194
0.000442007418
0.000447860712
0.000453765294
0.000459721379
0.000465729183
0.000471788921
0.000477900809
0.000484065062
0.000490281893
0.000496551519
0.000502874153
0.000509250009
0.000515679301
0.000522162243
0.000528699048
0.000535289929
0.000541935099
0.000548634772
0.000555389159
0.000562198472
0.000569062924
0.000575982727
0.000582958091
0.000589989228
0.000597076349
0.000604219664
0.000611419385
0.000618675721
0.000625988882
0.000633359078
0.000640786518
0.000648271411
0.000655813967
0.000663414394
0.0006710729
0.000678789693
0.000686564981
0.000694398971
0.000702291872
0.000710243889
0.000718255229
0.000726326099
0.000734456705
0.000742647253
0.000750897947
0.000759208994
0.000767580598
0.000776012963
0.000784506295
0.000793060797
0.000801676672
0.000810354125
0.000819093358
0.000827894574
0.000836757976
0.000845683765
0.000854672144
0.000863723314
0.000872837476
0.000882014832
0.000891255581
0.000900559924
0.000909928061
0.000919360191
0.000928856514
0.000938417229
0.000948042534
0.000957732627
0.000967487706
0.00097730797
0.000987193614
0.000997144837
0.00100716183
0.0010172448
0.00102739394
0.00103760943
0.00104789149
0.00105824029
0.00106865604
0.00107913894
0.00108968916
0.00110030692
0.00111099239
0.00112174578
0.00113256727
0.00114345706
0.00115441534
0.0011654423
0.00117653812
0.00118770301
0.00119893715
0.00121024073
0.00122161394
0.00123305697
0.00124457
0.00125615323
0.00126780684
0.00127953102
0.00129132596
0.00130319184
0.00131512885
0.00132713717
0.00133921699
0.0013513685
0.00136359187
0.0013758873
0.00138825497
0.00140069506
0.00141320774
0.00142579322
0.00143845166
0.00145118325
0.00146398816
0.00147686659
0.00148981871
0.0015028447
0.00151594474
0.001529119
0.00154236768
0.00155569094
0.00156908896
0.00158256192
0.00159610999
0.00160973336
0.0016234322
0.00163720669
0.00165105699
0.00166498328
0.00167898575
0.00169306455
0.00170721987
0.00172145187
0.00173576074
0.00175014663
0.00176460973
0.0017791502
0.00179376821
0.00180846394
0.00182323755
0.00183808921
0.00185301909
0.00186802736
0.00188311418
0.00189827973
0.00191352416
0.00192884765
0.00194425036
0.00195973246
0.0019752941
0.00199093546
0.0020066567
0.00202245798
0.00203833946
0.00205430131
0.00207034368
0.00208646674
0.00210267065
0.00211895557
0.00213532165
0.00215176907
0.00216829797
0.00218490851
0.00220160085
0.00221837515
0.00223523157
0.00225217025
0.00226919136
0.00228629506
0.00230348148
0.0023207508
0.00233810315
0.0023555387
0.0023730576
0.00239066
0.00240834604
0.00242611589
0.00244396968
0.00246190758
0.00247992972
0.00249803626
0.00251622735
0.00253450312
0.00255286374
0.00257130934
0.00258984006
0.00260845607
0.00262715749
0.00264594448
0.00266481718
0.00268377572
0.00270282025
0.00272195092
0.00274116787
0.00276047123
0.00277986114
0.00279933775
0.00281890119
0.0028385516
0.00285828912
0.00287811389
0.00289802604
0.0029180257
0.00293811302
0.00295828813
0.00297855115
0.00299890224
0.00301934151
0.0030398691
0.00306048514
0.00308118977
0.0031019831
0.00312286529
0.00314383644
0.00316489669
0.00318604618
0.00320728502
0.00322861334
0.00325003127
0.00327153893
0.00329313646
0.00331482396
0.00333660158
0.00335846942
0.00338042762
0.00340247629
0.00342461556
0.00344684554
0.00346916636
0.00349157813
0.00351408097
0.00353667501
0.00355936036
0.00358213713
0.00360500544
0.00362796541
0.00365101714
0.00367416077
0.00369739639
0.00372072413
0.00374414408
0.00376765637
0.00379126111
0.0038149584
0.00383874836
0.00386263109
0.00388660671
0.00391067531
0.00393483701
0.00395909191
0.00398344011
0.00400788173
0.00403241687
0.00405704562
0.0040817681
0.0041065844
0.00413149463
0.00415649888
0.00418159726
0.00420678986
0.00423207679
0.00425745814
0.00428293401
0.00430850449
0.00433416969
0.00435992969
0.00438578459
0.00441173448
0.00443777947
0.00446391963
0.00449015506
0.00451648586
0.0045429121
0.00456943389
0.00459605131
0.00462276445
0.00464957339
0.00467647822
0.00470347903
0.00473057591
0.00475776893
0.00478505818
0.00481244375
0.00483992571
0.00486750415
0.00489517915
0.00492295079
0.00495081914
0.00497878429
0.00500684631
0.00503500529
0.00506326129
0.0050916144
0.00512006468
0.00514861221
0.00517725707
0.00520599933
0.00523483906
0.00526377632
0.0052928112
0.00532194376
0.00535117407
0.00538050219
0.0054099282
0.00543945216
0.00546907414
0.0054987942
0.0055286124
0.00555852882
0.0055885435
0.00561865652
0.00564886794
0.00567917781
0.0057095862
0.00574009316
0.00577069875
0.00580140303
0.00583220606
0.00586310789
0.00589410857
0.00592520817
0.00595640673
0.0059877043
0.00601910095
0.00605059671
0.00608219164
0.00611388579
0.00614567921
0.00617757194
0.00620956404
0.00624165554
0.00627384649
0.00630613695
0.00633852694
0.00637101652
0.00640360573
0.0064362946
0.00646908318
0.00650197151
0.00653495963
0.00656804757
0.00660123538
0.00663452308
0.00666791072
0.00670139832
0.00673498593
0.00676867358
0.00680246129
0.00683634911
0.00687033705
0.00690442516
0.00693861345
0.00697290196
0.00700729072
0.00704177975
0.00707636907
0.00711105872
0.00714584871
0.00718073907
0.00721572982
0.00725082099
0.00728601258
0.00732130463
0.00735669715
0.00739219016
0.00742778368
0.00746347772
0.0074992723
0.00753516743
0.00757116313
0.00760725941
0.00764345628
0.00767975375
0.00771615184
0.00775265055
0.00778924989
0.00782594987
0.00786275049
0.00789965177
0.0079366537
0.0079737563
0.00801095956
0.00804826348
0.00808566808
0.00812317334
0.00816077928
0.00819848588
0.00823629314
0.00827420107
0.00831220966
0.00835031891
0.0083885288
0.00842683934
0.00846525051
0.00850376232
0.00854237474
0.00858108776
0.00861990139
0.00865881561
0.00869783039
0.00873694574
0.00877616164
0.00881547806
0.008854895
0.00889441244
0.00893403035
0.00897374873
0.00901356754
0.00905348678
0.00909350642
0.00913362643
0.00917384679
0.00921416748
0.00925458847
0.00929510974
0.00933573126
0.009376453
0.00941727493
0.00945819703
0.00949921925
0.00954034158
0.00958156397
0.0096228864
0.00966430883
0.00970583122
0.00974745354
0.00978917575
0.00983099781
0.00987291968
0.00991494132
0.0099570627
0.00999928377
0.0100416045
0.0100840248
0.0101265447
0.0101691641
0.0102118829
0.0102547012
0.0102976188
0.0103406358
0.010383752
0.0104269675
0.0104702821
0.0105136958
0.0105572086
0.0106008204
0.0106445312
0.0106883408
0.0107322493
0.0107762565
0.0108203625
0.0108645671
0.0109088703
0.010953272
0.0109977722
0.0110423708
0.0110870677
0.0111318629
0.0111767563
0.0112217478
0.0112668374
0.011312025
0.0113573105
0.0114026939
0.011448175
0.0114937538
0.0115394303
0.0115852043
0.0116310757
0.0116770446
0.0117231108
0.0117692742
0.0118155347
0.0118618924
0.011908347
0.0119548985
0.0120015468
0.0120482919
0.0120951336
0.0121420719
0.0121891066
0.0122362377
0.0122834651
0.0123307887
0.0123782084
0.0124257241
0.0124733358
0.0125210432
0.0125688463
0.0126167451
0.0126647394
0.0127128291
0.0127610142
0.0128092944
0.0128576698
0.0129061402
0.0129547055
0.0130033656
0.0130521204
0.0131009698
0.0131499137
0.0131989519
0.0132480844
0.013297311
0.0133466317
0.0133960463
0.0134455546
0.0134951567
0.0135448524
0.0135946415
0.0136445239
0.0136944995
0.0137445683
0.01379473
0.0138449845
0.0138953318
0.0139457717
0.013996304
0.0140469287
0.0140976457
0.0141484547
0.0141993556
0.0142503484
0.0143014329
0.0143526089
0.0144038764
0.0144552351
0.0145066851
0.014558226
0.0146098578
0.0146615803
0.0147133935
0.0147652971
0.014817291
0.0148693751
0.0149215492
0.0149738133
0.015026167
0.0150786103
0.0151311431
0.0151837652
0.0152364764
0.0152892765
0.0153421656
0.0153951433
0.0154482095
0.0155013641
0.0155546069
0.0156079378
0.0156613565
0.015714863
0.0157684571
0.0158221386
0.0158759073
0.0159297631
0.0159837058
0.0160377353
0.0160918514
0.0161460539
0.0162003427
0.0162547175
0.0163091782
0.0163637247
0.0164183567
0.0164730741
0.0165278767
0.0165827644
0.0166377369
0.0166927941
0.0167479358
0.0168031618
0.0168584719
0.016913866
0.0169693439
0.0170249053
0.0170805502
0.0171362782
0.0171920893
0.0172479831
0.0173039597
0.0173600187
0.0174161599
0.0174723832
0.0175286884
0.0175850752
0.0176415435
0.0176980931
0.0177547238
0.0178114354
0.0178682276
0.0179251003
0.0179820533
0.0180390864
0.0180961993
0.0181533919
0.0182106639
0.0182680152
0.0183254455
0.0183829546
0.0184405423
0.0184982084
0.0185559528
0.018613775
0.0186716751
0.0187296527
0.0187877076
0.0188458396
0.0189040484
0.018962334
0.0190206959
0.0190791341
0.0191376483
0.0191962382
0.0192549037
0.0193136445
0.0193724603
0.019431351
0.0194903164
0.0195493561
0.01960847
0.0196676578
0.0197269193
0.0197862542
0.0198456623
0.0199051435
0.0199646973
0.0200243237
0.0200840223
0.0201437929
0.0202036353
0.0202635492
0.0203235344
0.0203835906
0.0204437176
0.0205039152
0.020564183
0.0206245208
0.0206849285
0.0207454056
0.0208059521
0.0208665675
0.0209272517
0.0209880045
0.0210488254
0.0211097144
0.0211706711
0.0212316952
0.0212927865
0.0213539448
0.0214151697
0.0214764611
0.0215378186
0.0215992419
0.0216607309
0.0217222852
0.0217839045
0.0218455887
0.0219073373
0.0219691502
0.022031027
0.0220929676
0.0221549715
0.0222170386
0.0222791685
0.022341361
0.0224036157
0.0224659325
0.022528311
0.0225907509
0.0226532519
0.0227158139
0.0227784363
0.0228411191
0.0229038619
0.0229666643
0.0230295262
0.0230924471
0.0231554269
0.0232184652
0.0232815617
0.0233447161
0.0234079282
0.0234711976
0.023534524
0.0235979071
0.0236613466
0.0237248423
0.0237883937
0.0238520007
0.0239156628
0.0239793798
0.0240431514
0.0241069773
0.0241708571
0.0242347905
0.0242987772
0.024362817
0.0244269094
0.0244910542
0.0245552511
0.0246194996
0.0246837996
0.0247481507
0.0248125525
0.0248770048
0.0249415072
0.0250060594
0.0250706611
0.0251353118
0.0252000114
0.0252647595
0.0253295557
0.0253943997
0.0254592912
0.0255242298
0.0255892152
0.0256542471
0.0257193252
0.025784449
0.0258496183
0.0259148326
0.0259800918
0.0260453954
0.026110743
0.0261761344
0.0262415692
0.026307047
0.0263725675
0.0264381303
0.0265037352
0.0265693816
0.0266350694
0.0267007981
0.0267665674
0.0268323769
0.0268982262
0.0269641151
0.0270300431
0.0270960099
0.0271620151
0.0272280584
0.0272941394
0.0273602577
0.027426413
0.0274926048
0.027558833
0.0276250969
0.0276913964
0.027757731
0.0278241004
0.0278905041
0.0279569418
0.0280234132
0.0280899178
0.0281564553
0.0282230253
0.0282896275
0.0283562613
0.0284229265
0.0284896227
0.0285563495
0.0286231065
0.0286898933
0.0287567095
0.0288235548
0.0288904287
0.0289573309
0.029024261
0.0290912186
0.0291582033
0.0292252146
0.0292922523
0.0293593158
0.0294264049
0.0294935191
0.029560658
0.0296278212
0.0296950083
0.029762219
0.0298294527
0.0298967091
0.0299639878
0.0300312885
0.0300986105
0.0301659537
0.0302333175
0.0303007016
0.0303681055
0.0304355288
0.0305029712
0.0305704321
0.0306379113
0.0307054082
0.0307729224
0.0308404536
0.0309080013
0.030975565
0.0310431444
0.0311107391
0.0311783486
0.0312459725
0.0313136103
0.0313812617
0.0314489262
0.0315166034
0.0315842928
0.031651994
0.0317197067
0.0317874303
0.0318551644
0.0319229086
0.0319906624
0.0320584254
0.0321261973
0.0321939774
0.0322617655
0.032329561
0.0323973635
0.0324651725
0.0325329877
0.0326008086
0.0326686347
0.0327364656
0.0328043008
0.0328721398
0.0329399824
0.0330078279
0.0330756759
0.033143526
0.0332113777
0.0332792306
0.0333470842
0.033414938
0.0334827917
0.0335506447
0.0336184965
0.0336863467
0.0337541949
0.0338220406
0.0338898833
0.0339577226
0.0340255579
0.0340933889
0.034161215
0.0342290358
0.0342968508
0.0343646595
0.0344324615
0.0345002563
0.0345680434
0.0346358224
0.0347035927
0.0347713539
0.0348391056
0.0349068471
0.0349745781
0.0350422981
0.0351100066
0.0351777031
0.0352453871
0.0353130581
0.0353807157
0.0354483593
0.0355159885
0.0355836028
0.0356512017
0.0357187847
0.0357863514
0.0358539011
0.0359214334
0.0359889479
0.0360564441
0.0361239213
0.0361913792
0.0362588173
0.0363262349
0.0363936318
0.0364610072
0.0365283608
0.0365956921
0.0366630004
0.0367302854
0.0367975465
0.0368647832
0.036931995
0.0369991814
0.0370663419
0.037133476
0.0372005831
0.0372676628
0.0373347145
0.0374017377
0.0374687319
0.0375356966
0.0376026313
0.0376695354
0.0377364084
0.0378032499
0.0378700592
0.037936836
0.0380035795
0.0380702894
0.0381369651
0.038203606
0.0382702117
0.0383367816
0.0384033151
0.0384698119
0.0385362712
0.0386026927
0.0386690757
0.0387354197
0.0388017242
0.0388679887
0.0389342126
0.0390003954
0.0390665366
0.0391326355
0.0391986917
0.0392647047
0.0393306738
0.0393965986
0.0394624785
0.0395283129
0.0395941014
0.0396598433
0.0397255381
0.0397911853
0.0398567844
0.0399223347
0.0399878357
0.0400532869
0.0401186877
0.0401840376
0.040249336
0.0403145824
0.0403797761
0.0404449168
0.0405100037
0.0405750363
0.0406400141
0.0407049365
0.040769803
0.040834613
0.0408993659
0.0409640611
0.0410286982
0.0410932765
0.0411577954
0.0412222545
0.0412866531
0.0413509906
0.0414152666
0.0414794804
0.0415436314
0.0416077191
0.0416717429
0.0417357023
0.0417995966
0.0418634253
0.0419271879
0.0419908836
0.042054512
0.0421180725
0.0421815645
0.0422449874
0.0423083407
0.0423716237
0.0424348358
0.0424979766
0.0425610454
0.0426240415
0.0426869645
0.0427498138
0.0428125887
0.0428752887
0.0429379132
0.0430004615
0.0430629331
0.0431253275
0.043187644
0.043249882
0.0433120409
0.0433741201
0.0434361191
0.0434980372
0.0435598739
0.0436216285
0.0436833004
0.0437448891
0.043806394
0.0438678144
0.0439291497
